thickness (mm);transmission
0.1; 0.7403370715355941
0.11; 0.7184101281708146
0.12; 0.697132606351717
0.13; 0.6764852718267698
0.13999999999999999; 0.6564494600151497
0.14999999999999997; 0.6370070591345122
0.15999999999999998; 0.6181404938284742
0.16999999999999998; 0.5998327092790116
0.17999999999999997; 0.5820671557894065
0.18999999999999995; 0.5648277738238109
0.19999999999999996; 0.5480989794898995
0.20999999999999996; 0.5318656504514918
0.21999999999999995; 0.5161131122584064
0.22999999999999995; 0.5008271250811912
0.23999999999999994; 0.48599387083873813
0.24999999999999992; 0.47159994070714584
0.2599999999999999; 0.45763232299853873
0.2699999999999999; 0.4440783913988849
0.2799999999999999; 0.43092589355418176
0.2899999999999999; 0.4181629399946891
0.29999999999999993; 0.40577799338719994
0.30999999999999994; 0.3937598581056314
0.3199999999999999; 0.38209767011051
0.32999999999999985; 0.37078088712819984
0.33999999999999986; 0.3597992791209993
0.34999999999999987; 0.3491429190394883
0.3599999999999999; 0.33880217384876926
0.3699999999999999; 0.3287676958204878
0.3799999999999999; 0.3190304140827621
0.3899999999999999; 0.30958152642038256
0.3999999999999998; 0.3004124913178694
0.4099999999999998; 0.29151502023819437
0.4199999999999998; 0.28288107013018854
0.4299999999999998; 0.2745028361578612
0.43999999999999984; 0.26637274464505845
0.44999999999999984; 0.2584834462290838
0.45999999999999985; 0.2508278092170911
0.46999999999999986; 0.243398913139245
0.47999999999999976; 0.23619004249282013
0.48999999999999977; 0.22919468067158527
0.4999999999999998; 0.22240650407498352
0.5099999999999998; 0.21581937639178428
0.5199999999999998; 0.20942734305303887
0.5299999999999998; 0.203224625849326
0.5399999999999998; 0.1972056177074212
0.5499999999999998; 0.1913648776216681
0.5599999999999997; 0.18569712573547
0.5699999999999997; 0.18019723856845513
0.5799999999999997; 0.17486024438500203
0.5899999999999997; 0.16968131869993708
0.5999999999999998; 0.1646557799173425
0.6099999999999998; 0.15977908509853175
0.6199999999999998; 0.15504682585536705
0.6299999999999997; 0.15045472436520688
0.6399999999999997; 0.14599862950388018
0.6499999999999997; 0.14167451309319318
0.6599999999999997; 0.13747846625957488
0.6699999999999997; 0.1334066959005709
0.6799999999999997; 0.12945552125599075
0.6899999999999997; 0.1256213705806093
0.6999999999999996; 0.12190077791541472
0.7099999999999996; 0.11829037995448353
0.7199999999999996; 0.11478691300465174
0.7299999999999996; 0.11138721003523226
0.7399999999999997; 0.10808819781511285
0.7499999999999997; 0.10488689413464583
0.7599999999999997; 0.10178040510981866
0.7699999999999997; 0.09876592256626825
0.7799999999999997; 0.09584072150077405
0.7899999999999996; 0.09300215761793597
0.7999999999999996; 0.09024766493980896
0.8099999999999996; 0.08757475348633509
0.8199999999999996; 0.08498100702447488
0.8299999999999996; 0.08246408088400399
0.8399999999999996; 0.08002169983800066
0.8499999999999996; 0.07765165604610758
0.8599999999999995; 0.0753518070587096
0.8699999999999996; 0.07312007388022229
0.8799999999999996; 0.07095443908974156
0.8899999999999996; 0.06885294501735446
0.8999999999999996; 0.06681369197446368
0.9099999999999996; 0.06483483653652489
0.9199999999999996; 0.06291458987664549
0.9299999999999996; 0.06105121614853789
0.9399999999999996; 0.05924303091736573
0.9499999999999995; 0.05748839963706452
0.9599999999999995; 0.05578573617276018
0.9699999999999995; 0.05413350136695008
0.9799999999999995; 0.05253020164814995
0.9899999999999995; 0.05097438768074948
0.9999999999999996; 0.049464653054855666
1.0099999999999996; 0.04799963301493978
1.0199999999999996; 0.046578003226138656
1.0299999999999996; 0.045198478577095115
1.0399999999999996; 0.04385981201825523
1.0499999999999996; 0.04256079343457226
1.0599999999999996; 0.041300248551598535
1.0699999999999996; 0.04007703787397589
1.0799999999999996; 0.03889005565536555
1.0899999999999996; 0.037738228898886124
1.0999999999999996; 0.03662051638715601
1.1099999999999997; 0.03553590774106374
1.1199999999999997; 0.034483422506414944
1.1299999999999997; 0.033462109267630886
1.1399999999999997; 0.03247104478769672
1.1499999999999995; 0.031509333173582586
1.1599999999999995; 0.030576105066382635
1.1699999999999995; 0.029670516855440414
1.1799999999999995; 0.02879174991574962
1.1899999999999995; 0.027939009867941293
1.1999999999999995; 0.027111525860188328
1.2099999999999995; 0.026308549871378175
1.2199999999999995; 0.02552935603492385
1.2299999999999995; 0.024773239982601926
1.2399999999999995; 0.024039518207824517
1.2499999999999996; 0.023327527447769468
1.2599999999999996; 0.022636624083810356
1.2699999999999996; 0.02196618355970423
1.2799999999999996; 0.021315599817011255
1.2899999999999996; 0.020684284747235725
1.2999999999999994; 0.020071667660193367
1.3099999999999994; 0.01947719476812426
1.3199999999999994; 0.018900328685085073
1.3299999999999994; 0.01834054794116801
1.3399999999999994; 0.017797346511107398
1.3499999999999994; 0.017270233356847842
1.3599999999999994; 0.016758731983660274
1.3699999999999994; 0.016262380009404758
1.3799999999999994; 0.01578072874655077
1.3899999999999995; 0.015313342796576859
1.3999999999999995; 0.014859799656383248
1.4099999999999995; 0.01441968933636151
1.4199999999999995; 0.013992613989776068
1.4299999999999995; 0.013578187553122489
1.4399999999999995; 0.013176035397137473
1.4499999999999995; 0.012785793988145064
1.4599999999999995; 0.012407110559432935
1.4699999999999993; 0.012039642792361707
1.4799999999999993; 0.011683058506918965
1.4899999999999993; 0.011337035361438397
1.4999999999999993; 0.011001260561212402
1.5099999999999993; 0.010675430575734916
1.5199999999999994; 0.010359250864318801
1.5299999999999994; 0.010052435609839759
1.5399999999999994; 0.009754707460366096
1.5499999999999994; 0.00946579727844073
1.5599999999999994; 0.009185443897788935
1.5699999999999994; 0.00891339388723169
1.5799999999999994; 0.008649401321591399
1.5899999999999994; 0.00839322755938278
1.5999999999999994; 0.008144641027088017
1.6099999999999994; 0.00790341700982113
1.6199999999999992; 0.00766933744819236
1.6299999999999992; 0.007442190741188898
1.6399999999999992; 0.007221771554893848
1.6499999999999992; 0.007007880636870407
1.6599999999999993; 0.006800324636043553
1.6699999999999993; 0.006598915927916375
1.6799999999999993; 0.006403472444963074
1.6899999999999993; 0.006213817512045289
1.6999999999999993; 0.0060297796867029956
1.7099999999999993; 0.005851192604175577
1.7199999999999993; 0.005677894827012998
1.7299999999999993; 0.0055097296991411015
1.7399999999999993; 0.005346545204249166
1.7499999999999993; 0.005188193828371632
1.7599999999999993; 0.0050345324265398395
1.7699999999999994; 0.0048854220933831965
1.7799999999999994; 0.004740728037562833
1.7899999999999991; 0.004600319459924205
1.7999999999999992; 0.004464069435258513
1.8099999999999992; 0.004331854797566077
1.8199999999999992; 0.004203556028717902
1.8299999999999992; 0.004079057150414813
1.8399999999999992; 0.003958245619346502
1.8499999999999992; 0.003841012225455697
1.8599999999999992; 0.0037272509932154935
1.8699999999999992; 0.003616859085830608
1.8799999999999992; 0.0035097367122759516
1.8899999999999992; 0.003405787037088489
1.8999999999999992; 0.0033049160928308404
1.9099999999999993; 0.0032070326951474837
1.9199999999999993; 0.0031120483603368034
1.9299999999999993; 0.0030198772253644283
1.939999999999999; 0.002930435970245586
1.949999999999999; 0.0028436437427262883
1.959999999999999; 0.0027594220851952954
1.969999999999999; 0.002677694863760741
1.979999999999999; 0.0025983881994273445
1.989999999999999; 0.002521430401311982
1.9999999999999991; 0.002446751901837242
2.009999999999999; 0.002374285193844394
2.019999999999999; 0.0023039647695688964
2.029999999999999; 0.0022357270614233385
2.039999999999999; 0.0021695103845341826
2.049999999999999; 0.002105254880980497
2.059999999999999; 0.002042902465684126
2.069999999999999; 0.0019823967739025284
2.079999999999999; 0.0019236831102766856
2.089999999999999; 0.0018667083993881308
2.099999999999999; 0.0018114211377803294
2.109999999999999; 0.001757771347401079
2.119999999999999; 0.0017057105304238169
2.129999999999999; 0.0016551916254070338
2.1399999999999992; 0.0016061689647520977
2.149999999999999; 0.0015585982334211169
2.1599999999999993; 0.0015124364288774303
2.169999999999999; 0.0014676418222126072
2.1799999999999993; 0.0014241739204247236
2.189999999999999; 0.001381993429813905
2.199999999999999; 0.0013410622204619643
2.209999999999999; 0.0013013432917640892
2.219999999999999; 0.0012628007389813946
2.229999999999999; 0.0012253997207840824
2.239999999999999; 0.001189106427755926
2.249999999999999; 0.00115388805183154
2.259999999999999; 0.0011197127566388698
2.269999999999999; 0.0010865496487200447
2.279999999999999; 0.001054368749604607
2.289999999999999; 0.001023140968709858
2.299999999999999; 0.000992838077043832
2.309999999999999; 0.0009634326816871161
2.319999999999999; 0.0009348982010304699
2.329999999999999; 0.0009072088407458223
2.339999999999999; 0.0008803395704689738
2.3499999999999988; 0.000854266101172875
2.359999999999999; 0.0008289648632110682
2.3699999999999988; 0.0008044129850114273
2.379999999999999; 0.000780588272400921
2.389999999999999; 0.0007574691885427479
2.399999999999999; 0.0007350348344676605
2.409999999999999; 0.0007132649301819243
2.419999999999999; 0.0006921397963347926
2.429999999999999; 0.0006716403364289638
2.439999999999999; 0.0006517480195579029
2.449999999999999; 0.0006324448636544553
2.459999999999999; 0.0006137134192355867
2.469999999999999; 0.0005955367536285658
2.479999999999999; 0.0005778984356643264
2.489999999999999; 0.0005607825208241809
2.4999999999999987; 0.000544173536826439
2.509999999999999; 0.000528056469639926
2.5199999999999987; 0.0005124167499117438
2.529999999999999; 0.0004972402397970003
2.5399999999999987; 0.0004825132201786214
2.549999999999999; 0.00046822237826566756
2.5599999999999987; 0.000454354795558971
2.569999999999999; 0.00044089793617318665
2.5799999999999987; 0.00042783963550472876
2.589999999999999; 0.00041516808923532203
2.5999999999999988; 0.00040287184266125226
2.609999999999999; 0.00039093978033864714
2.6199999999999988; 0.00037936111603544703
2.629999999999999; 0.0003681253829809678
2.639999999999999; 0.00035722242440424957
2.649999999999999; 0.0003466423843526355
2.659999999999999; 0.0003363756987822821
2.6699999999999986; 0.0003264130869125446
2.679999999999999; 0.00031674554283642664
2.6899999999999986; 0.00030736432737950677
2.699999999999999; 0.00029826096019997986
2.7099999999999986; 0.00028942721212268246
2.719999999999999; 0.00028085509770015785
2.7299999999999986; 0.00027253686799404874
2.739999999999999; 0.00026446500357028754
2.7499999999999987; 0.0002566322077017465
2.759999999999999; 0.0002490313997722139
2.7699999999999987; 0.00024165570887572685
2.779999999999999; 0.00023449846760547239
2.7899999999999987; 0.0002275532060266519
2.799999999999999; 0.00022081364582784768
2.8099999999999987; 0.00021427369464561814
2.819999999999999; 0.00020792744055717785
2.8299999999999987; 0.00020176914673619703
2.8399999999999985; 0.0001957932462668773
2.8499999999999988; 0.0001899943371116252
2.8599999999999985; 0.00018436717722777082
2.8699999999999988; 0.00017890667982891354
2.8799999999999986; 0.00017360790878661998
2.889999999999999; 0.00016846607416830703
2.8999999999999986; 0.00016347652790728678
2.909999999999999; 0.00015863475960104892
2.9199999999999986; 0.0001539363924339925
2.929999999999999; 0.00014937717922091157
2.9399999999999986; 0.0001449529985676672
2.949999999999999; 0.00014065985114556693
2.9599999999999986; 0.00013649385607609162
2.969999999999999; 0.0001324512474226939
2.9799999999999986; 0.00012852837078650468
2.9899999999999984; 0.00012472168000286275
2.9999999999999987; 0.0001210277339356874
3.0099999999999985; 0.00011744319336679363
3.0199999999999987; 0.00011396481797733591
3.0299999999999985; 0.00011058946341865737
3.0399999999999987; 0.00010731407846988982
3.0499999999999985; 0.0001041357022797417
3.0599999999999987; 0.00010105146168997444
3.0699999999999985; 9.805856863815368e-05
3.0799999999999987; 9.515431763732195e-05
3.0899999999999985; 9.233608333031879e-05
3.0999999999999988; 8.960131811653595e-05
3.1099999999999985; 8.694754984896059e-05
3.1199999999999988; 8.437237959942798e-05
3.1299999999999986; 8.187347949006158e-05
3.1399999999999983; 7.944859058893925e-05
3.1499999999999986; 7.709552086808653e-05
3.1599999999999984; 7.481214322194715e-05
3.1699999999999986; 7.259639354454283e-05
3.1799999999999984; 7.044626886358273e-05
3.1899999999999986; 6.835982552983487e-05
3.1999999999999984; 6.633517746012546e-05
3.2099999999999986; 6.437049443237451e-05
3.2199999999999984; 6.246400043113007e-05
3.2299999999999986; 6.061397204210167e-05
3.2399999999999984; 5.88187368942457e-05
3.2499999999999987; 5.707667214799042e-05
3.2599999999999985; 5.538620302823776e-05
3.2699999999999987; 5.3745801400812297e-05
3.2799999999999985; 5.2153984391073904e-05
3.2899999999999987; 5.060931304344205e-05
3.2999999999999985; 4.911039102062319e-05
3.3099999999999983; 4.765586334136246e-05
3.3199999999999985; 4.624441515558088e-05
3.3299999999999983; 4.487477055578997e-05
3.3399999999999985; 4.354569142370843e-05
3.3499999999999983; 4.225597631104048e-05
3.3599999999999985; 4.100445935340136e-05
3.3699999999999983; 3.9790009216411045e-05
3.3799999999999986; 3.8611528073000706e-05
3.3899999999999983; 3.746795061101007e-05
3.3999999999999986; 3.635824307017608e-05
3.4099999999999984; 3.528140230764473e-05
3.4199999999999986; 3.423645489115897e-05
3.4299999999999984; 3.322245621910522e-05
3.4399999999999986; 3.2238489666620963e-05
3.4499999999999984; 3.128366575699311e-05
3.4599999999999986; 3.035712135759749e-05
3.4699999999999984; 2.9458018899652078e-05
3.479999999999998; 2.8585545621079752e-05
3.4899999999999984; 2.773891283179549e-05
3.4999999999999982; 2.691735520075354e-05
