energy (kev); u_mass (cm2/g); u_linear (cm-1); optimal_thickness (mm)
1.0; 8748.104068635337; 71297.048159378; 0.0002805165223010613
1.1; 7522.2894294085245; 61306.65884967948; 0.00032622883672455365
1.2000000000000002; 6094.590002956079; 49670.90852409205; 0.0004026501748060303
1.3000000000000003; 5021.9809874195225; 40929.14504746911; 0.0004886493469825537
1.4000000000000004; 4198.110059703565; 34214.59698658405; 0.000584545830185936
1.5000000000000004; 3553.188710826469; 28958.487993235725; 0.0006906437934422441
1.6000000000000005; 3032.3234934331117; 24713.43647147986; 0.0008092763636121862
1.7000000000000006; 2600.291209021941; 21192.37335352882; 0.0009437357329621473
1.8000000000000007; 2249.5489686980272; 18333.82409488892; 0.001090879889350284
1.9000000000000008; 1961.4597057092699; 15985.89660153055; 0.0012511028000822377
2.000000000000001; 1722.3510318360186; 14037.160909463551; 0.0014247895374994548
2.100000000000001; 1515.5376139840253; 12351.631553969806; 0.0016192192839149266
2.200000000000001; 1341.5376482699655; 10933.53183340022; 0.0018292350820165123
2.300000000000001; 1193.9921551685593; 9731.036064623759; 0.0020552796091988673
2.4000000000000012; 1146.0021843879138; 9339.917802761498; 0.00214134646817627
2.5000000000000013; 1065.9992791306645; 8687.894124914916; 0.0023020538363427477
2.6000000000000014; 1003.4235195023666; 8177.901683944288; 0.0024456151190061495
2.7000000000000015; 945.2891446857709; 7704.106529189034; 0.002596018100765448
2.8000000000000016; 860.3680169163559; 7011.999337868301; 0.0028522535494249126
2.9000000000000017; 794.3330157134122; 6473.81407806431; 0.003089368918975823
3.0000000000000018; 727.8355029501014; 5931.859349043327; 0.0033716241102759023
3.100000000000002; 667.0655273687004; 5436.584048054909; 0.0036787806135647923
3.200000000000002; 613.0817683280785; 4996.61641187384; 0.004002708703528347
3.300000000000002; 564.9477424140761; 4604.32410067472; 0.004343742873589022
3.400000000000002; 521.8792939587732; 4253.316245764002; 0.004702213248290335
3.500000000000002; 483.216355079606; 3938.213293898789; 0.0050784450986909885
3.6000000000000023; 448.4004730353428; 3654.4638552380443; 0.0054727590126068554
3.7000000000000024; 416.95689379558587; 3398.198684434025; 0.005885471056066585
3.8000000000000025; 388.4801845663138; 3166.113504215458; 0.006316892926729064
3.9000000000000026; 362.6226249621396; 2955.374393441438; 0.006767332099913963
4.000000000000003; 339.0847789379383; 2763.5409483441977; 0.007237091967818749
4.100000000000003; 317.2735750535313; 2585.7796366862804; 0.007734611146381496
4.200000000000003; 297.3480406726171; 2423.3865314818295; 0.008252913738763162
4.3000000000000025; 279.1057092049272; 2274.711530020157; 0.008792323657770693
4.400000000000003; 262.3698805740955; 2138.3145266788783; 0.009353160982852689
4.5000000000000036; 246.98585596622607; 2012.9347261247426; 0.009935741949518432
4.600000000000003; 232.8177876078399; 1897.4649690038952; 0.010540379046101347
4.700000000000003; 219.74603593734358; 1790.9301928893503; 0.011167381106984144
4.800000000000003; 207.66494374550732; 1692.4692915258847; 0.011817053402468851
4.900000000000004; 196.48095446371917; 1601.3197788793113; 0.012489697725458097
5.0000000000000036; 191.4650023622522; 1560.4397692523555; 0.01281689969333612
5.100000000000003; 181.61525158305423; 1480.164300401892; 0.013512013493751762
5.200000000000004; 172.40096051498315; 1405.0678281971127; 0.01423418827094108
5.300000000000004; 163.7773117476517; 1334.7850907433615; 0.014983685492667365
5.400000000000004; 155.70388275872466; 1268.9866444836061; 0.015760607163945905
5.5000000000000036; 148.14358007311242; 1207.3701775958662; 0.016564927949292492
5.600000000000004; 141.06195471882145; 1149.654930958395; 0.01739652434955179
5.700000000000005; 134.4267869218132; 1095.5783134127776; 0.018255198880031742
5.800000000000004; 128.20784794171004; 1044.893960724937; 0.019140698244752223
5.900000000000004; 122.37676933840144; 997.3706701079718; 0.020052725229863507
6.000000000000004; 202.58485845421063; 1651.0665964018167; 0.012113381763997993
6.100000000000005; 197.8832859504959; 1612.7487804965415; 0.01240118748925192
6.200000000000005; 192.6747714602493; 1570.299387401032; 0.012736424761077924
6.300000000000004; 187.0528114525129; 1524.4804133379803; 0.013119223982818048
6.400000000000005; 181.11501350883412; 1476.0873600969983; 0.01354933355616956
6.500000000000005; 174.9574589946065; 1425.903290806043; 0.014026196677542051
6.600000000000005; 168.6821403873013; 1374.7594441565057; 0.01454799971370348
6.700000000000005; 162.34756824919; 1323.1326812308987; 0.015115642054426602
6.800000000000005; 156.03777185768234; 1271.7078406401113; 0.015726882669790762
6.900000000000006; 149.8141200421683; 1220.9850783436716; 0.016380216560165514
7.000000000000005; 143.72733628537324; 1171.377790725792; 0.017073910875165126
7.100000000000005; 137.81801784071524; 1123.2168454018292; 0.01780600075744504
7.2000000000000055; 195.3290310686633; 1591.931603209606; 0.012563353827310535
7.300000000000006; 187.8196856650478; 1530.7304381701397; 0.013065657741743432
7.400000000000006; 180.64625180147354; 1472.2669521820094; 0.013584492927969693
7.500000000000005; 173.81188652595284; 1416.5668751865157; 0.01411864159068851
7.600000000000006; 167.31545500599705; 1363.620958298876; 0.01466683236150176
7.700000000000006; 161.15241830123617; 1313.3922091550749; 0.015227743746756579
7.800000000000006; 155.31563013925458; 1265.8223856349248; 0.01580000498250644
7.900000000000006; 149.7960342934625; 1220.8376794917194; 0.016382194239226586
8.000000000000007; 144.58326214451802; 1178.3535864778219; 0.01697283415564707
8.100000000000007; 139.6509889925921; 1138.1555602896256; 0.017572290377345798
8.200000000000006; 134.98994994411774; 1100.1680920445597; 0.018179040225418525
8.300000000000006; 130.57730275320753; 1064.2050174386413; 0.018793371269886103
8.400000000000006; 274.59451129476616; 2237.945267052344; 0.00893676905080995
8.500000000000007; 266.42599673014655; 2171.3718733506944; 0.009210766817725025
8.600000000000007; 258.61428261104976; 2107.706403280056; 0.009488987635505396
8.700000000000006; 251.1354762200541; 2046.754131193441; 0.009771569381583809
8.800000000000008; 243.96781501915353; 1988.3376924061015; 0.010058653555874535
8.900000000000007; 237.09142763066592; 1932.2951351899274; 0.010350385733406185
9.000000000000007; 230.4881279289121; 1878.4782426206336; 0.010646915969651229
9.100000000000007; 224.14123689900308; 1826.7510807268752; 0.010948399161226651
9.200000000000006; 218.03542788073193; 1776.9887372279652; 0.011254995364348363
9.300000000000008; 212.1565915879149; 1729.0762214415065; 0.011566870073157494
9.400000000000007; 206.49171791672242; 1682.9075010212878; 0.01188419445980413
9.500000000000007; 201.02879206178662; 1638.384655303561; 0.012207145577968311
9.600000000000009; 195.75670287026514; 1595.417128392661; 0.012535906531321656
9.700000000000008; 190.66516170053035; 1553.9210678593224; 0.012870666608280141
9.800000000000008; 185.74463032853592; 1513.8187371775678; 0.013211621384267515
9.900000000000007; 180.98625667285; 1475.0379918837275; 0.0135589727925981
10.000000000000007; 176.38181719566415; 1437.5118101446628; 0.013912929173073936
10.100000000000009; 171.92131991824408; 1401.1587573336892; 0.014273900009773806
10.200000000000008; 167.6019882384521; 1365.9562041433846; 0.01464175786846867
10.300000000000008; 163.41874812732047; 1331.8627972376619; 0.015016561797116655
10.40000000000001; 159.36671973749483; 1298.838765860583; 0.015398370086951035
10.500000000000009; 155.44121005098359; 1266.8458619155163; 0.015787240264383297
10.600000000000009; 151.63770576733083; 1235.8473020037463; 0.016183229083053315
10.700000000000008; 147.95186642838488; 1205.8077113913369; 0.016586392516036195
10.800000000000008; 144.37951777555273; 1176.6930698707547; 0.01699678574821279
10.90000000000001; 140.91664533515274; 1148.4706594814947; 0.017414463168810502
11.000000000000009; 137.55938822723922; 1121.1090140519998; 0.017839478364119504
11.100000000000009; 134.30403319306586; 1094.5778705234868; 0.018271884110387604
11.20000000000001; 131.1470088361513; 1068.848122014633; 0.018711732366898607
11.30000000000001; 128.08488007178929; 1043.8917725850827; 0.01915907426923407
11.40000000000001; 125.11434277968617; 1019.6818936544423; 0.019613960122722113
11.500000000000009; 122.2322186543393; 996.1925820328654; 0.020076439396072697
11.600000000000009; 119.43545024768153; 973.3989195186045; 0.02054656071520094
11.70000000000001; 116.7210961984879; 951.2769340176765; 0.021024371857237066
11.80000000000001; 114.08632664300501; 929.8035621404908; 0.021509919744723514
11.90000000000001; 111.52841880127306; 908.9566132303755; 0.022003250439997613
12.00000000000001; 109.04475273362924; 888.7147347790783; 0.022504409139758114
12.10000000000001; 106.63280726190428; 869.0573791845198; 0.02301344016981595
12.20000000000001; 104.29015604990165; 849.9647718066985; 0.023530386980024697
12.30000000000001; 102.0144638377906; 831.4178802779934; 0.02405529213939059
12.40000000000001; 99.80348282513319; 813.3983850248355; 0.02458819733135976
12.50000000000001; 97.65504919735918; 795.8886509584773; 0.02512914334927918
12.60000000000001; 95.56707979058741; 778.8717002932874; 0.025678170092030453
12.70000000000001; 93.53756888981084; 762.3311864519584; 0.026235316559832734
12.800000000000011; 91.56458515556618; 746.2513690178644; 0.02680062085021277
12.900000000000011; 89.64626867433199; 730.6170896958058; 0.027374120154138537
13.00000000000001; 87.78082812801213; 715.4137492432989; 0.027955850752315322
13.10000000000001; 85.96653807799704; 700.6272853356759; 0.02854584801163981
13.20000000000001; 84.20173635941232; 686.2441513292105; 0.029144146381810752
13.300000000000011; 82.484821581301; 672.2512958876032; 0.02975077939209193
13.400000000000011; 80.81425072860469; 658.6361434381282; 0.03036577964822665
13.50000000000001; 79.18853686195; 645.3865754248925; 0.030989178829499094
13.600000000000012; 77.60624691136604; 632.4909123276333; 0.031621007685941116
13.700000000000012; 76.06599956019201; 619.937896415565; 0.03226129603568119
13.800000000000011; 74.56646321556009; 607.7166752068148; 0.032910072762432775
13.900000000000011; 73.10635406196083; 595.8167856049807; 0.03356736581312054
14.00000000000001; 71.68443419453048; 584.2281386854235; 0.03423320219563913
14.100000000000012; 70.29950982880521; 572.9410051047626; 0.03490760797674621
14.200000000000012; 68.95042958382477; 561.9460011081719; 0.03559060828008294
14.300000000000011; 67.63608283556853; 551.2340751098835; 0.03628222728432233
14.400000000000013; 66.3553981378269; 540.7964948232892; 0.03698248822144309
14.500000000000012; 65.10734170772773; 530.624834917981; 0.037691413375122954
14.600000000000012; 63.89091597322597; 520.7109651817917; 0.038409024079255866
14.700000000000012; 62.70515817999451; 511.0470391669553; 0.039135340716583526
14.800000000000011; 61.54913905523228; 501.6254833001431; 0.03987038271744496
14.900000000000013; 60.421961526019736; 492.43898643706086; 0.040614168558638725
15.000000000000012; 59.32275948994002; 483.4804898430112; 0.041366715762396346
15.100000000000012; 58.25015517813133; 474.7387647017704; 0.04212843249184411
15.200000000000014; 57.20385540027631; 466.21142151225195; 0.04289899191042106
15.300000000000013; 56.18303487606935; 457.8917342399652; 0.04367844733689535
15.400000000000013; 55.18689962331013; 449.7732319299776; 0.04446685258297825
15.500000000000012; 54.21468589356141; 441.84969003252553; 0.04526426169616133
15.600000000000012; 53.26565881299396; 434.1151193259008; 0.04607072896022659
15.700000000000014; 52.33911109357569; 426.56375541264185; 0.046886308895730595
15.800000000000013; 51.43436181048488; 419.1900487554518; 0.04771105626046875
15.900000000000013; 50.550755241911695; 411.9886552215803; 0.04854502604991241
16.000000000000014; 49.687659767641435; 404.9544271062777; 0.04938827349762774
16.100000000000016; 48.84446682306308; 398.0824046079641; 0.050240854075668626
16.200000000000014; 48.02058990544618; 391.36780772938636; 0.05110282349494909
16.30000000000001; 47.21546362953588; 384.80602858071745; 0.0519742377055945
16.400000000000013; 46.42854282970306; 378.39262406207996; 0.052855152897268824
16.500000000000014; 45.659301706051316; 372.12330890431826; 0.053745625499483224
16.600000000000016; 44.90723301205285; 365.9939490482307; 0.054645712181881995
16.700000000000014; 44.17184728142891; 360.00055534364566; 0.05555546985450788
16.800000000000015; 43.45267209213304; 354.1392775508843; 0.05647495566804592
16.900000000000013; 42.7492513654218; 348.4063986281877; 0.05740422701404976
17.000000000000014; 42.061144698128345; 342.79832928974605; 0.058343341525142756
17.100000000000016; 41.38792672635349; 337.31160281978094; 0.05929235707520447
17.200000000000014; 40.72918651891048; 331.9428701291204; 0.06025133177953279
17.300000000000015; 40.08452699894536; 326.6888950414047; 0.061220323994989764
17.400000000000013; 39.45356439225815; 321.54654979690395; 0.06219939232012425
17.500000000000014; 38.83592770092608; 316.51281076254753; 0.06318859559527999
17.600000000000016; 38.231258200922966; 311.5847543375222; 0.06418799290267946
17.700000000000014; 37.63920896249322; 306.7595530443198; 0.06519764356649214
17.800000000000015; 37.05944439211788; 302.03447179576074; 0.06621760715288233
17.900000000000016; 36.49163979497271; 297.4068643290276; 0.06724794347003898
18.000000000000014; 35.93548095684282; 292.87416979826895; 0.0682887125681857
18.100000000000016; 35.390663744514015; 288.43390951778923; 0.06933997473957373
18.200000000000017; 34.856893723719914; 284.0836838483173; 0.07040179051845417
18.300000000000015; 34.333885793769035; 279.82116921921767; 0.07147422068103643
18.400000000000016; 33.82136383803405; 275.64411527997754; 0.07255732624542184
18.500000000000014; 33.31906038951843; 271.5503421745752; 0.07365116847152538
18.600000000000016; 32.82671631076954; 267.5377379327718; 0.07475580886097534
18.700000000000017; 32.34408048743984; 263.6042559726347; 0.07587130915699723
18.800000000000015; 31.870909534839274; 259.7479127089401; 0.07699773134427822
18.900000000000016; 31.406967516855186; 255.96678526236977; 0.07813513764881526
19.000000000000014; 34.696571991141866; 282.7770617278062; 0.07072709461579835
19.100000000000016; 34.20250032572266; 278.7503776546397; 0.07174878171745182
19.200000000000017; 33.71783768919573; 274.8003771669452; 0.07278010389283313
19.300000000000015; 33.242347395610125; 270.9251312742225; 0.0738211324506348
19.400000000000016; 32.77580022125111; 267.12277180319654; 0.07487193946435633
19.500000000000018; 32.31797412399962; 263.3914891105969; 0.07593259777502563
19.600000000000016; 31.868653975004467; 259.7295298962864; 0.07700318099365241
19.700000000000017; 31.427631302044812; 256.1351951116652; 0.07808376350341374
19.80000000000002; 30.9947040439954; 252.60683795856252; 0.07917442046157433
19.900000000000016; 30.569676315841395; 249.14286197410738; 0.0802752278011422
20.000000000000018; 30.1523581838649; 245.74171919849897; 0.08138626223187162
20.100000000000016; 31.803829913261875; 259.2012137930843; 0.07716013249832095
20.200000000000017; 31.376024604647935; 255.7146005278807; 0.07821219421461775
20.30000000000002; 30.955848256629448; 252.29016329153; 0.07927380021110576
20.400000000000016; 30.54313250161349; 248.92652988814993; 0.08034499178929058
20.500000000000018; 30.137713394953906; 245.62236416887436; 0.08142581017683419
20.600000000000016; 29.739431280209512; 242.37636493370755; 0.08251629652697451
20.700000000000017; 29.348130659075565; 239.18726487146586; 0.08361649191794376
20.80000000000002; 28.963660065805943; 236.05382953631843; 0.08472643735238733
20.900000000000016; 28.58587194595184; 232.9748563595075; 0.08584617375678368
21.000000000000018; 28.21462253925107; 229.94917369489625; 0.08697574198086323
21.10000000000002; 27.84977176650813; 226.97563989704128; 0.08811518279702715
21.200000000000017; 27.491183120311874; 224.05314243054178; 0.08926453689976768
21.30000000000002; 27.13872355944553; 221.1805970094811; 0.09042384490508759
21.40000000000002; 26.792263406848708; 218.35694676581699; 0.0915931473499195
21.500000000000018; 26.451676250997323; 215.5811614456282; 0.09277248469154484
21.60000000000002; 26.116838850572655; 212.85223663216715; 0.0939618973070143
21.700000000000017; 25.78763104229698; 210.1691929947204; 0.0951614254925669
21.80000000000002; 25.46393565181783; 207.53107556231532; 0.09637110946304811
21.90000000000002; 25.145638407526352; 204.93695302133978; 0.09759098935133202
22.000000000000018; 24.832627857204365; 202.38591703621557; 0.09882110520773606
22.10000000000002; 24.5247952873917; 199.87708159224238; 0.10006149699944508
22.200000000000017; 24.222034645379118; 197.40958235983982; 0.10131220460992534
22.30000000000002; 23.924242463726543; 194.98257607937134; 0.10257326783834583
22.40000000000002; 23.631317787217526; 192.59523996582286; 0.10384472639899675
22.500000000000018; 23.343162102161383; 190.24677113261527; 0.10512661992070607
22.60000000000002; 23.059679267957442; 187.93638603385315; 0.10641898794625848
22.70000000000002; 22.78077545084097; 185.6633199243539; 0.10772186993181387
22.80000000000002; 22.506359059733164; 183.4268263368253; 0.10903530524632288
22.90000000000002; 22.236340684119043; 181.2261765755702; 0.11035933317094578
23.00000000000002; 21.970633033882663; 179.0606592261437; 0.11169399289846858
23.10000000000002; 21.709150881029693; 176.929579680392; 0.11303932353272003
23.20000000000002; 21.45181100323111; 174.83225967633356; 0.11439536408798891
23.30000000000002; 21.198532129125145; 172.76803685236993; 0.11576215348843706
23.40000000000002; 20.949234885314006; 170.73626431530914; 0.11713973056751886
23.50000000000002; 20.703841744998893; 168.73631022174098; 0.1185281340673946
23.60000000000002; 20.462276978194975; 166.76755737228905; 0.11992740263834614
23.70000000000002; 20.224466603472337; 164.82940281829954; 0.1213375748381925
23.80000000000002; 19.990338341170812; 162.92125748054212; 0.12275868913170292
23.90000000000002; 19.759821568037605; 161.0425457795065; 0.12419078389001165
24.00000000000002; 19.53284727323927; 159.19270527690006; 0.12563389739003408
24.10000000000002; 19.30934801570256; 157.3711863279759; 0.12708806781387655
24.20000000000002; 19.089257882737034; 155.57745174430684; 0.1285533332482538
24.300000000000022; 18.872512449898654; 153.81097646667405; 0.13002973168389814
24.40000000000002; 18.659048742050494; 152.07124724771154; 0.13151730101497522
24.50000000000002; 18.448805195582203; 150.35776234399495; 0.13301607903849447
24.600000000000023; 18.24172162174852; 148.67003121725045; 0.13452610345372257
24.70000000000002; 18.03773917109021; 147.0075742443852; 0.1360474118615958
24.800000000000022; 17.83680029890185; 145.36992243605008; 0.13758004176412925
24.90000000000002; 17.6388487317111; 143.75661716344547; 0.13912403056383002
25.00000000000002; 17.443829434736873; 142.16720989310554; 0.14067941556310945
25.100000000000023; 17.251688580294775; 140.60126192940243; 0.14224623396369115
25.20000000000002; 17.062373517117802; 139.0583441645101; 0.14382452286602387
25.300000000000022; 16.875832740563855; 137.53803683559542; 0.14541431926868914
25.40000000000002; 16.69201586367989; 136.03992928899112; 0.1470156600678157
25.50000000000002; 16.510873589096878; 134.56361975113956; 0.14862858205648583
25.600000000000023; 16.332357681727252; 133.1087151060771; 0.15025312192414736
25.70000000000002; 16.156420942240395; 131.67483067925923; 0.15188931625602084
25.800000000000022; 15.983017181290267; 130.26159002751567; 0.15353720153251102
25.900000000000023; 15.812101194472096; 128.8686247349476; 0.1551968141286158
26.00000000000002; 15.643628737984615; 127.49557421457462; 0.15686819031333643
26.100000000000023; 15.477556504976166; 126.14208551555575; 0.15855136624908278
26.200000000000024; 15.313842102552039; 124.80781313579912; 0.16024637799108524
