energy (kev); u_mass (cm2/g); u_linear (cm-1); optimal_thickness (mm)
1.0; 8720.830954947673; 68807.35623453713; 0.0002906665957608935
1.1; 7035.976424476619; 55513.85398912052; 0.0003602704291422382
1.2000000000000002; 5694.791982920982; 44931.90874524655; 0.0004451179698017135
1.3000000000000003; 4688.147262286293; 36989.48189943885; 0.0005406942453093243
1.4000000000000004; 3915.6298812965506; 30894.319763429783; 0.000647368194320122
1.5000000000000004; 3311.4073503423806; 26127.003994201383; 0.0007654915199782873
1.6000000000000005; 2807.0282627579813; 22147.45299316047; 0.000903038376745911
1.7000000000000006; 2403.5144251281313; 18963.728814260954; 0.0010546449063835884
1.8000000000000007; 2076.413295829764; 16382.900904096838; 0.001220785019519873
1.9000000000000008; 1825.4457696182094; 14402.767122287672; 0.0013886220495123362
2.000000000000001; 1601.7179675539883; 12637.554764000966; 0.0015825846355160033
2.100000000000001; 1408.59610323714; 11113.823254541034; 0.0017995607399846074
2.200000000000001; 1246.5549226017033; 9835.31833932744; 0.0020334878150337172
2.300000000000001; 1108.685738559592; 8747.530477235181; 0.0022863595676572445
2.4000000000000012; 990.953021340966; 7818.619338380221; 0.002557996384582062
2.5000000000000013; 889.8796742498427; 7021.150629831258; 0.002848535952928369
2.6000000000000014; 834.7671874766671; 6586.313109190904; 0.0030366002448457695
2.7000000000000015; 771.5105531732056; 6087.218264536592; 0.003285573004095749
2.8000000000000016; 701.2279402019285; 5532.688448193216; 0.003614879129247067
2.9000000000000017; 646.362861404787; 5099.802976483769; 0.003921720131586274
3.0000000000000018; 591.5002714719113; 4666.93714191338; 0.004285465904475472
3.100000000000002; 541.6148819182163; 4273.341418334726; 0.004680178352749961
3.200000000000002; 497.3471860769339; 3924.0692981470083; 0.005096749950222397
3.300000000000002; 457.9153668651622; 3612.9522445661296; 0.005535639179864596
3.400000000000002; 422.6659112137585; 3334.834039476554; 0.005997299944539148
3.500000000000002; 391.04958534308435; 3085.3812283569355; 0.006482181137353533
3.6000000000000023; 362.60238369998774; 2860.932807392903; 0.0069907269224632725
3.7000000000000024; 336.9303775916124; 2658.380679197822; 0.0075233769777604195
3.8000000000000025; 313.6975832775925; 2475.0739320602047; 0.008080566701840854
3.9000000000000026; 292.6161856990047; 2308.741705165147; 0.008662727387501054
4.000000000000003; 273.4386130432911; 2157.430656911567; 0.009270286363980133
4.100000000000003; 255.71066926091225; 2017.5571804685976; 0.009912978027891532
4.200000000000003; 239.52368778616636; 1889.8418966328525; 0.010582895868503164
4.3000000000000025; 224.7116395840423; 1772.9748363180936; 0.011280475949412602
4.400000000000003; 211.12966996878157; 1665.8130960536864; 0.012006148857503899
4.5000000000000036; 198.65100005096303; 1567.3563904020982; 0.012760339717547642
4.600000000000003; 187.1643351846393; 1476.726604606804; 0.01354346832894315
4.700000000000003; 176.57169117348136; 1393.1506433587679; 0.0143559492976163
4.800000000000003; 166.78656373512086; 1315.9459878701036; 0.015198192163168166
4.900000000000004; 157.7323812371309; 1244.5084879609628; 0.0160706015213834
5.0000000000000036; 149.3411771456935; 1178.3018876795218; 0.01697357885031214
5.100000000000003; 141.46421050941242; 1116.1526209192639; 0.017918696444513105
5.200000000000004; 134.1466572245483; 1058.417125501686; 0.018896141717775088
5.300000000000004; 127.33906869381764; 1004.7052519942212; 0.019906335674370536
5.400000000000004; 120.99719198901036; 954.6678447932917; 0.020949694816976346
5.5000000000000036; 115.08134054176264; 907.9917768745072; 0.022026631197965336
5.600000000000004; 109.55585079188916; 864.3956627480054; 0.023137552468065238
5.700000000000005; 104.3886117694179; 823.6261468607072; 0.02428286192252518
5.800000000000004; 99.55065674748475; 785.4546817376547; 0.025462958544920974
5.900000000000004; 95.01580787559558; 749.6747241384492; 0.026678237048720906
6.000000000000004; 166.4327401910242; 1313.1543201071809; 0.015230502381751736
6.100000000000005; 162.83351451560355; 1284.756429528112; 0.015567153073011632
6.200000000000005; 158.74942014503284; 1252.5329249443091; 0.015967644124715727
6.300000000000004; 154.26657298928453; 1217.163260885455; 0.01643164942840167
6.400000000000005; 149.47428978209197; 1179.3521463807056; 0.01695846322184402
6.500000000000005; 144.46017289606445; 1139.7907641499485; 0.01754708024407964
6.600000000000005; 142.08019610076974; 1121.0127472350732; 0.01784101032689333
6.700000000000005; 136.76273521087495; 1079.0579808138034; 0.01853468521211104
6.800000000000005; 131.45072288527248; 1037.1462035647999; 0.01928368433616931
6.900000000000006; 126.19973647497386; 995.7159207875437; 0.020086050230251774
7.000000000000005; 121.05580704003157; 955.130317545849; 0.020939551004295225
7.100000000000005; 116.05589598840103; 915.6810193484841; 0.02184166710611758
7.2000000000000055; 346.3301872174065; 2732.545177145337; 0.007319183656057172
7.300000000000006; 334.107170114081; 2636.105572200099; 0.007586949555782761
7.400000000000006; 322.4209000243095; 2543.900901191802; 0.00786194147367538
7.500000000000005; 311.25591537833856; 2455.8091723350913; 0.008143955249170734
7.600000000000006; 300.5948872011199; 2371.693660016836; 0.008432792285601516
7.700000000000006; 290.41917527099616; 2291.4072928881596; 0.008728260603025048
7.800000000000006; 280.70933369209195; 2214.7966428306054; 0.00903017442469984
7.900000000000006; 271.4455541376673; 2141.705422146195; 0.009338352414478213
8.000000000000007; 262.60804276232307; 2071.977457394729; 0.009652614669441279
8.100000000000007; 254.17231989818572; 2005.4196039966853; 0.009972975211841529
8.200000000000006; 246.11733596593336; 1941.865780771214; 0.010299373004068788
8.300000000000006; 238.419031979332; 1881.1261623169294; 0.010631929107490893
8.400000000000006; 261.64140238258926; 2064.350664798629; 0.009688276483758603
8.500000000000007; 253.7271196170086; 2001.9069737781979; 0.00999047421382124
8.600000000000007; 246.14290799633508; 1942.0675440910836; 0.010298302992010658
8.700000000000006; 238.8699436788698; 1884.6838556262826; 0.01061185935258833
8.800000000000008; 231.890837341316; 1829.6187066229832; 0.010931239349271291
8.900000000000007; 225.1894821677539; 1776.7450143035783; 0.011256539255206126
9.000000000000007; 218.7509239102173; 1725.9447896516144; 0.01158785618167835
9.100000000000007; 212.56124916370385; 1677.1082559016234; 0.011925288620827808
9.200000000000006; 206.60748874199993; 1630.1330861743793; 0.012268936916639304
9.300000000000008; 200.87753363050638; 1584.9237403446953; 0.012618903667661842
9.400000000000007; 195.36006146195663; 1541.3908849348377; 0.012975294064260345
9.500000000000007; 190.04447183659357; 1499.4508827907232; 0.013338216162690658
9.600000000000009; 184.92082910991707; 1459.0253416772455; 0.013707781097899703
9.700000000000008; 179.9798115141811; 1420.040712846889; 0.01408410323666293
9.800000000000008; 175.21266567645503; 1382.4279321872302; 0.014467300272468224
9.900000000000007; 170.6111657557235; 1346.1220978126585; 0.014857493263425666
10.000000000000007; 166.16757652405622; 1311.0621787748034; 0.015254806616944847
10.100000000000009; 161.87401233274292; 1277.1859573053416; 0.015659426793414487
10.200000000000008; 157.72490798801184; 1244.4495240254134; 0.016071362971240587
10.300000000000008; 153.71435282576275; 1212.806243795268; 0.01649068027339095
10.40000000000001; 149.83672112276605; 1182.211729658624; 0.01691744338027775
10.500000000000009; 146.08665606367305; 1152.6237163423802; 0.017351716537176574
10.600000000000009; 142.45905476627908; 1124.001942105942; 0.017793563561400782
10.700000000000008; 138.94905428254947; 1096.3080382893152; 0.018243047849223204
10.800000000000008; 135.5520185004681; 1069.5054259686933; 0.018700232382538134
10.90000000000001; 132.26352587851898; 1043.5592191815147; 0.01916517973525874
11.000000000000009; 129.07935795066993; 1018.4361342307857; 0.019637952079445603
11.100000000000009; 125.99548854517053; 994.1044046213955; 0.02011861119116256
11.20000000000001; 123.00807366534582; 970.5337012195785; 0.02060721845605967
11.30000000000001; 120.11344198500387; 947.6950572616805; 0.021103834874679036
11.40000000000001; 117.30808591500998; 925.5607978694287; 0.02160852106748524
11.500000000000009; 114.58865320119413; 904.1044737574217; 0.02212133727961859
11.600000000000009; 111.95193901698312; 883.3007988439967; 0.022642343385372937
11.70000000000001; 109.39487851710217; 863.1255914999361; 0.023171598892397664
11.80000000000001; 106.91453982134308; 843.5557191903969; 0.02370916294562618
11.90000000000001; 104.50811739982392; 824.5690462846106; 0.024255094330932165
12.00000000000001; 102.17292583336916; 806.1443848252827; 0.02480945147851478
12.10000000000001; 99.9063939246299; 788.2614480653299; 0.025372292466017483
12.20000000000001; 97.70605913741713; 770.9008065942211; 0.025943675021379755
12.30000000000001; 95.5695623433688; 754.0438468891798; 0.02652365652542664
12.40000000000001; 93.49464285660734; 737.6727321386319; 0.02711229401419893
12.50000000000001; 91.47913373844956; 721.770365196367; 0.027709644181025277
12.60000000000001; 89.52095735549656; 706.3203535348679; 0.028315763378341734
12.70000000000001; 87.61812117562287; 691.3069760756645; 0.028930707619260265
12.800000000000011; 85.7687137874543; 676.7151517830144; 0.029554532578890604
12.900000000000011; 83.97090112992586; 662.530409915115; 0.030187293595417677
13.00000000000001; 82.22292291941592; 648.7388618341915; 0.030829045670940115
13.10000000000001; 80.52308926280914; 635.3271742835641; 0.03147984347207136
13.20000000000001; 78.8697774456087; 622.2825440458527; 0.03213974133030848
13.300000000000011; 77.26142888494567; 609.5926739022213; 0.03280879324217076
13.400000000000011; 75.69654623798986; 597.24574981774; 0.03348705286911351
13.50000000000001; 74.17369065689053; 585.2304192828663; 0.03417457353721931
13.600000000000012; 72.69147918193892; 573.535770745498; 0.03487140823667099
13.700000000000012; 71.2485822651768; 562.1513140722449; 0.035577609621009795
13.800000000000011; 69.84372141716425; 551.0669619814258; 0.036293230006182294
13.900000000000011; 68.4756669700744; 540.273012393887; 0.037018321369380124
14.00000000000001; 67.14323595071158; 529.7601316511144; 0.0377529353476744
14.100000000000012; 65.84529005743249; 519.5193385531423; 0.038497123236451325
14.200000000000012; 64.58073373532955; 509.5419891717501; 0.03925093598764958
14.300000000000011; 63.34851234436799; 499.8197623970634; 0.0400144242078042
14.400000000000013; 62.14761041548765; 490.34464617819754; 0.040787638155901765
14.500000000000012; 60.97704998998635; 481.10892442099225; 0.041570627741045786
14.600000000000012; 59.83588903776155; 472.1051645079386; 0.04236344251994238
14.700000000000012; 58.72321995026748; 463.32620540761036; 0.04316613169420244
14.800000000000011; 57.63816810426776; 454.7651463426726; 0.043978744107468805
14.900000000000013; 56.57989049270255; 446.41533598742313; 0.04480132824236903
15.000000000000012; 55.54757441919645; 438.27036216746; 0.04563393221729682
15.100000000000012; 54.54024162096375; 430.32250638940394; 0.04647676963914539
15.200000000000014; 53.557324190603254; 422.56728786385963; 0.04732974031450226
15.300000000000013; 52.59807950198483; 414.9988472706603; 0.048192904947892766
15.400000000000013; 51.661792018533205; 407.611539026227; 0.04906632439253183
15.500000000000012; 50.747772257993844; 400.3999231155714; 0.04995005954141305
15.600000000000012; 49.855355681559644; 393.35875632750555; 0.05084417132778469
15.700000000000014; 48.983901637342214; 386.48298391863005; 0.05174872072559549
15.800000000000013; 48.13279235517893; 379.7677316823617; 0.05266376874991588
15.900000000000013; 47.301431989964286; 373.2082984008182; 0.05358937645732733
16.000000000000014; 46.48924571085181; 366.8001486586208; 0.0545256049462889
16.100000000000016; 45.695678833849705; 360.53890599907413; 0.055472515357472565
16.200000000000014; 44.9201959954708; 354.4203464042646; 0.056430168874072706
16.30000000000001; 44.162280365243156; 348.4403920817685; 0.057398626722089674
16.400000000000013; 43.42143289502127; 342.59510554171777; 0.05837795017058293
16.500000000000014; 42.69717160315103; 336.8806839488616; 0.05936820053190107
16.600000000000016; 41.98903089166631; 331.29345373524717; 0.060369439161882685
16.700000000000014; 41.29656089479475; 325.8298654599306; 0.06138172746003091
16.800000000000015; 40.61932685715311; 320.48648890293805; 0.06240512686966084
16.900000000000013; 39.95690854010328; 315.2600083814149; 0.0634396988780231
17.000000000000014; 39.30889965483476; 310.14721827664624; 0.0644855050163962
17.100000000000016; 38.674907320809396; 305.1450187611861; 0.06554260686015814
17.200000000000014; 38.05455154829464; 300.2504117160447; 0.06661106602882717
17.300000000000015; 37.44746474377161; 295.460496828358; 0.06769094418608051
17.400000000000013; 36.85329123708202; 290.77246786057714; 0.06878230303974249
17.500000000000014; 36.27168682923076; 286.18360908263065; 0.069885204341753
17.600000000000016; 35.702318359832816; 281.69129185908093; 0.07099970988810407
17.700000000000014; 35.14486329323696; 277.2929713836396; 0.07212588151875532
17.800000000000015; 34.59900932241992; 272.9861835538931; 0.0732637811175216
17.900000000000016; 34.06445398978913; 268.76854197943624; 0.07441347061193725
18.000000000000014; 33.54090432408212; 264.63773511700794; 0.07557501197309266
18.100000000000016; 33.02807649258994; 260.5915235265346; 0.07674846721544842
18.200000000000017; 32.52569546797811; 256.6277372423473; 0.0779338983966216
18.300000000000015; 32.03349470901119; 252.74427325409826; 0.07913136761715213
18.400000000000016; 31.551215854531836; 248.93909309225617; 0.08034093702023752
18.500000000000014; 31.078608430068996; 245.21022051324437; 0.08156266879144931
18.600000000000016; 30.615429566491613; 241.55573927961882; 0.08279662515842154
18.700000000000017; 30.16144373014883; 237.97379103087425; 0.08404286839051632
18.800000000000015; 29.7164224639691; 234.46257324071618; 0.08530146079846423
18.900000000000016; 29.28014413901596; 231.02033725683592; 0.08657246473398177
19.000000000000014; 28.852393716025322; 227.64538641943977; 0.08785594258936451
19.100000000000016; 28.43296251647284; 224.3360742549707; 0.08915195679705468
19.200000000000017; 28.021648002740548; 221.09080274162292; 0.09046056982918885
19.300000000000015; 27.6182535669779; 217.90802064345561; 0.09178184419711792
19.400000000000016; 27.222588328267825; 214.78622191003313; 0.0931158424509061
19.500000000000018; 26.83446693773078; 211.72394413869586; 0.09446262717880612
19.600000000000016; 26.453709391216847; 208.7197670967009; 0.09582226100671097
19.700000000000017; 26.08014084925304; 205.77231130060648; 0.09719480659758258
19.80000000000002; 25.7135914639295; 202.88023665040376; 0.09858032665085713
19.900000000000016; 25.35389621242297; 200.04224111601724; 0.09997888390182913
20.000000000000018; 25.000894736985998; 197.25705947481953; 0.10139054112054763
20.100000000000016; 26.289001291859098; 207.42022019276828; 0.09642261483192321
20.200000000000017; 25.92880695934901; 204.57828690926368; 0.09776208561600955
20.30000000000002; 25.575197778378534; 201.78831047140662; 0.09911376904478318
20.400000000000016; 25.22802371748542; 199.04910713095995; 0.10047771772641734
20.500000000000018; 24.887138836177833; 196.35952541744308; 0.10185398420311803
20.600000000000016; 24.552401155115426; 193.7184451138607; 0.1032426209504455
20.700000000000017; 24.223672530988125; 191.1247762694963; 0.10464368037662955
20.80000000000002; 23.900818535901355; 188.57745824826168; 0.10605721482188003
20.900000000000016; 23.583708341085114; 186.07545881116152; 0.10748327655769468
21.000000000000018; 23.272214604753895; 183.6177732315082; 0.10892191778615942
21.10000000000002; 22.96621336395025; 181.20342344156745; 0.11037319063924522
21.200000000000017; 22.66558393021317; 178.8314572093819; 0.11183714717810148
21.30000000000002; 22.370208788919882; 176.50094734457787; 0.11331383939234364
21.40000000000002; 22.07997350215561; 174.21099093200775; 0.11480331919933648
21.500000000000018; 21.794766614972612; 171.9607085921339; 0.11630563844347215
21.60000000000002; 21.514479564905344; 169.74924376710317; 0.11782084889544546
21.700000000000017; 21.239006594615244; 167.57576203151427; 0.11934900225152373
21.80000000000002; 20.968244667543757; 165.43945042692025; 0.12089015013281021
21.90000000000002; 20.702093386455978; 163.33951681913766; 0.12244434408450938
22.000000000000018; 20.44045491476647; 161.27518927750745; 0.12401163557517733
22.10000000000002; 20.183233900536656; 159.24571547523422; 0.1255920759959811
22.200000000000017; 19.93033740304637; 157.25036211003584; 0.1271857166599401
22.30000000000002; 19.681674821837767; 155.28841434429998; 0.1287926088011737
22.40000000000002; 19.43715782814056; 153.359175264029; 0.13041280357414048
22.500000000000018; 19.196700298588414; 151.4619653558626; 0.1320463520528711
22.60000000000002; 18.960218251139768; 149.59612200149277; 0.13369330523020126
22.70000000000002; 18.727629783121557; 147.76099898882907; 0.13535371401699867
22.80000000000002; 18.49885501131699; 145.95596603929104; 0.13702762924138395
22.90000000000002; 18.273816014020863; 144.1804083506246; 0.1387151016479512
23.00000000000002; 18.05243677499076; 142.4337261546771; 0.14041618189698157
23.10000000000002; 17.834643129224073; 140.71533428957792; 0.1421309205636539
23.20000000000002; 17.620362710493836; 139.02466178579635; 0.14385936813725322
23.30000000000002; 17.409524900580546; 137.3611514655805; 0.14560157502036908
23.40000000000002; 17.202060780136332; 135.72425955527567; 0.14735759152809902
23.50000000000002; 16.99790308112473; 134.1134553100741; 0.14912746788724096
23.60000000000002; 16.79698614077798; 132.52822065073826; 0.15091125423548488
23.70000000000002; 16.59924585701794; 130.96804981187154; 0.15270900062060105
23.80000000000002; 16.404619645288633; 129.4324490013273; 0.1545207569996215
23.90000000000002; 16.21304639674969; 127.92093607035504; 0.15634657323802126
24.00000000000002; 16.024466437782742; 126.43304019410583; 0.15818649910889654
24.10000000000002; 15.838821490765255; 124.96830156213785; 0.16004058429213286
24.20000000000002; 15.65605463606558; 123.52627107855741; 0.16190887837357978
24.300000000000022; 15.476110275218677; 122.10651007147536; 0.1637914308442109
24.40000000000002; 15.298934095239307; 120.70859001143813; 0.1656882910992899
24.50000000000002; 15.124473034034775; 119.33209223853437; 0.16759950843752705
24.600000000000023; 14.952675246878327; 117.97660769787; 0.16952513206023545
24.70000000000002; 14.783490073906933; 116.6417366831257; 0.1714652110704843
24.800000000000022; 14.616868008608868; 115.32708858792397; 0.17341979447224354
24.90000000000002; 14.452760667266084; 114.0322816647294; 0.1753889311695328
25.00000000000002; 14.291120759319888; 112.75694279103391; 0.17737266996556367
25.100000000000023; 14.131902058628576; 111.50070724257947; 0.17937105956187582
25.20000000000002; 13.975059375586135; 110.2632184733746; 0.18138414855747592
25.300000000000022; 13.820548530074088; 109.04412790228456; 0.18341198544796639
25.40000000000002; 13.668326325217272; 107.84309470596428; 0.18545461862468138
25.50000000000002; 13.518350521918276; 106.65978561793519; 0.18751209637380833
25.600000000000023; 13.370579814143213; 105.49387473358995; 0.1895844668755149
25.70000000000002; 13.224973804934933; 104.34504332093663; 0.19167177820306716
25.800000000000022; 13.081492983128893; 103.21297963688696; 0.19377407832195034
25.900000000000023; 12.940098700749108; 102.09737874891046; 0.1958914150889837
26.00000000000002; 12.800753151061606; 100.99794236187607; 0.19802383625143483
26.100000000000023; 12.663419347264433; 99.91437864991637; 0.20017138944612492
26.200000000000024; 12.528061101792524; 98.84640209314301; 0.2023341221985398
