energy (kev); u_mass (cm2/g); u_linear (cm-1); optimal_thickness (mm)
1.0; 5601.406021812943; 24478.144315322563; 0.0008170554002118787
1.1; 4396.906494256117; 19214.481379899233; 0.0010408815936568821
1.2000000000000002; 3525.064955493172; 15404.533855505162; 0.0012983190655167112
1.3000000000000003; 2876.6669768818088; 12571.034688973505; 0.0015909589381328095
1.4000000000000004; 2383.2672686591027; 10414.877964040279; 0.0019203297502913162
1.5000000000000004; 2000.374583132798; 8741.636928290327; 0.0022879010148859572
1.6000000000000005; 1901.0904076296101; 8307.765081341397; 0.0024073863192061685
1.7000000000000006; 1627.0368109551257; 7110.1508638739; 0.002812879836575392
1.8000000000000007; 1404.7366995974419; 6138.699377240821; 0.003258019129288175
1.9000000000000008; 1222.1331492316738; 5340.7218621424145; 0.003744812127695611
2.000000000000001; 1070.4629204822447; 4677.9229625074095; 0.004275401745667017
2.100000000000001; 940.5957987261373; 4110.40364043322; 0.00486570219120672
2.200000000000001; 831.154863038851; 3632.1467514797787; 0.005506385443223562
2.300000000000001; 738.2754420093805; 3226.263681580993; 0.006199121328545358
2.4000000000000012; 658.9388814340102; 2879.5629118666247; 0.00694549853992784
2.5000000000000013; 590.763229114311; 2581.635311229539; 0.007747027596424812
2.6000000000000014; 531.8515513546272; 2324.191279419721; 0.00860514372336574
2.7000000000000015; 480.68042405463984; 2100.5734531187763; 0.009521209539378628
2.8000000000000016; 436.0169022335378; 1905.3938627605603; 0.010496517486953448
2.9000000000000017; 396.8559804824723; 1734.260634708404; 0.01153229197488114
3.0000000000000018; 362.3729954030107; 1583.5699899111567; 0.012629691221366264
3.100000000000002; 331.3873203278894; 1448.1625898328768; 0.013810603961470977
3.200000000000002; 303.9225144288331; 1328.1413880540006; 0.01505863771725697
3.300000000000002; 279.4843478615898; 1221.3466001551476; 0.016375367972907444
3.400000000000002; 257.66043491478024; 1125.9761005775897; 0.017762366350174433
3.500000000000002; 238.1047554047282; 1040.5177811186622; 0.019221199640142593
3.6000000000000023; 220.52542662279964; 963.6961143416345; 0.020753430155379782
3.7000000000000024; 204.67499814547466; 894.4297418957243; 0.022360616002784564
3.8000000000000025; 190.3426962264818; 831.7975825097254; 0.024044311285030887
3.9000000000000026; 177.3481861483605; 775.0115734683354; 0.025806066237818757
4.000000000000003; 165.53652488758047; 723.3946137587267; 0.0276474273095301
4.100000000000003; 154.66109426320605; 675.8689819302105; 0.029591534061649216
4.200000000000003; 144.73692153518732; 632.5003471087686; 0.031620536006695156
4.3000000000000025; 135.66140006421992; 592.8403182806411; 0.0337358971434401
4.400000000000003; 127.34498138665822; 556.4975686596964; 0.035939060880659825
4.5000000000000036; 119.7092719202357; 523.12951829143; 0.03823144995778695
4.600000000000003; 112.6854398228397; 492.4353720258095; 0.04061446666132619
4.700000000000003; 106.21287733627557; 464.15027395952427; 0.04308949304152318
4.800000000000003; 100.23807332685696; 438.04038043836493; 0.045657891128633346
4.900000000000004; 94.7136595004637; 413.8986920170264; 0.04832100314822272
5.0000000000000036; 628.1866179045552; 2745.1755202429063; 0.007285508650547163
5.100000000000003; 613.1900651263535; 2679.640584602165; 0.007463687523962963
5.200000000000004; 593.1935874786627; 2592.2559772817563; 0.007715287446640216
5.300000000000004; 569.7542788574242; 2489.8261986069438; 0.008032689193803965
5.400000000000004; 544.2364380792769; 2378.31323440644; 0.008409321241064966
5.5000000000000036; 538.3505985102951; 2352.5921154899897; 0.00850126116988812
5.600000000000004; 511.0244483124134; 2233.1768391252467; 0.008955851435318558
5.700000000000005; 484.42619042821207; 2116.9424521712867; 0.009447587949066152
5.800000000000004; 459.07067131191195; 2006.1388336330554; 0.009969399756735988
5.900000000000004; 435.3190642865738; 1902.3443109323275; 0.010513343922582616
6.000000000000004; 413.40931962996495; 1806.5987267829469; 0.01107052700940096
6.100000000000005; 393.4253963438923; 1719.2689820228095; 0.011632851060029571
6.200000000000005; 375.17533066061816; 1639.5161949869014; 0.012198720611088436
6.300000000000004; 358.43842229324576; 1566.375905421484; 0.012768327149809135
6.400000000000005; 343.02700456379074; 1499.0280099437655; 0.013341978847179966
6.500000000000005; 328.7807971959391; 1436.7720837462539; 0.013920092286211324
6.600000000000005; 315.5623481139032; 1379.007461257757; 0.01450318476287178
6.700000000000005; 303.2533329883931; 1325.2170651592778; 0.015091867231272186
6.800000000000005; 291.75153442509435; 1274.9542054376623; 0.01568683793872774
6.900000000000006; 280.9683627559137; 1227.8317452433428; 0.016288876776057146
7.000000000000005; 270.82681079539077; 1183.5131631758577; 0.016898840352845494
7.100000000000005; 261.2597581431917; 1141.7051430857477; 0.017517657795553875
7.2000000000000055; 252.36348873427136; 1102.828445768766; 0.018135186915729476
7.300000000000006; 243.771785618984; 1065.2827031549602; 0.018774359088688516
7.400000000000006; 235.59973902274282; 1029.570859529386; 0.019425569221279186
7.500000000000005; 227.80773190347685; 995.5197884181939; 0.020090007484209325
7.600000000000006; 220.36089340593952; 962.9771041839557; 0.02076892577518586
7.700000000000006; 213.22849146609497; 931.808507706835; 0.021463637469054303
7.800000000000006; 206.38341312193072; 901.8955153428373; 0.02217551773987634
7.900000000000006; 199.80171804924623; 873.1335078752061; 0.022906004430720498
8.000000000000007; 193.4622534766127; 845.4300476927974; 0.023656599448506198
8.100000000000007; 187.3479376559943; 818.710487556695; 0.02442865983027366
8.200000000000006; 181.4514191013381; 792.9427014728475; 0.02522250342029897
8.300000000000006; 175.76690823670958; 768.1013889944209; 0.026038229179852806
8.400000000000006; 170.28844100567883; 744.1604871948165; 0.026875923062499453
8.500000000000007; 165.0099358548782; 721.0934196858177; 0.027735657342032122
8.600000000000007; 159.9252428958662; 698.8733114549353; 0.02861748999738365
8.700000000000006; 155.02818616115064; 677.4731735242283; 0.029521464142941073
8.800000000000008; 150.31259971703886; 656.8660607634598; 0.03044760750274489
8.900000000000007; 145.77235832682555; 637.0252058882277; 0.03139593192723554
9.000000000000007; 141.40140329273999; 617.9241323892737; 0.032366432951352345
9.100000000000007; 137.1937640442355; 599.5367488733092; 0.03335908939291107
9.200000000000006; 133.14357598372877; 581.8374270488947; 0.03437386299028732
9.300000000000008; 129.2450950488151; 564.801065363322; 0.035410698078507545
9.400000000000007; 125.49270940212699; 548.403140087295; 0.03646952130291667
9.500000000000007; 121.88094861628109; 532.6197454531484; 0.03755024136963636
9.600000000000009; 118.40449068152031; 517.4276242782438; 0.038652748832066826
9.700000000000008; 115.058167127506; 502.8041903472012; 0.03977691591271228
9.800000000000008; 111.83696651801257; 488.72754368371494; 0.04092259635962569
9.900000000000007; 108.7360365477493; 475.17647971366443; 0.042089625336783835
10.000000000000007; 105.7506849469592; 462.1304932182117; 0.04327781934648548
10.100000000000009; 102.87630213716707; 449.5694403394201; 0.0444870095816571
10.200000000000008; 100.10770929403134; 437.470689614917; 0.045717348555636896
10.300000000000008; 97.43994510864776; 425.8125601247907; 0.04696902316394496
10.40000000000001; 94.86833105072996; 414.57460669168995; 0.04824222148963783
10.500000000000009; 92.38845244882464; 403.7375372013637; 0.04953713280820114
10.600000000000009; 89.99614101931193; 393.2831362543932; 0.05085394759225857
10.700000000000008; 87.68745871959621; 383.1941946046354; 0.05219285751610931
10.800000000000008; 85.45868281275554; 373.45444389174173; 0.0535540554601023
10.90000000000001; 83.30629204154087; 364.04849622153364; 0.05493773551485691
11.000000000000009; 81.22695381914318; 354.9617881896557; 0.05634409298533853
11.100000000000009; 79.21751235270722; 346.18052898133055; 0.057773324394794594
11.20000000000001; 77.27497762324866; 337.6916522135966; 0.059225627488563456
11.30000000000001; 75.39651515257047; 329.482771216733; 0.06070120123775469
11.40000000000001; 73.57943649398516; 321.5421374787151; 0.06220024584281407
11.500000000000009; 71.821190389287; 313.8586020011842; 0.06372296273697332
11.600000000000009; 70.11935453947818; 306.42157933751963; 0.0652695545895945
11.70000000000001; 68.4716279413465; 299.2210141036842; 0.06684022530940867
11.80000000000001; 66.87582374612727; 292.24734977057614; 0.06843518004765711
11.90000000000001; 65.32986260024015; 285.49149956304944; 0.070054625201137
12.00000000000001; 63.83176643149046; 278.9448193056133; 0.07169876841515348
12.10000000000001; 62.379652647199336; 272.5990820682611; 0.07336781858638773
12.20000000000001; 60.97172871354108; 266.44645447817453; 0.07506198586567517
12.30000000000001; 59.606287087892774; 260.47947457409145; 0.0767814816607024
12.40000000000001; 58.281700478320154; 254.6910310902591; 0.07852651863862559
12.50000000000001; 56.996417406431654; 249.07434406610633; 0.08029731072860655
12.60000000000001; 55.748958051737716; 243.62294668609383; 0.0820940731242769
12.70000000000001; 54.53791035741184; 238.33066826188974; 0.08391702228612472
12.800000000000011; 53.361926378934434; 233.19161827594348; 0.08576637594381
12.900000000000011; 52.21971885856216; 228.20017141191664; 0.08764235309840612
13.00000000000001; 51.1100580098891; 223.35095350321538; 0.08954517402457418
13.10000000000001; 50.03176849798927; 218.63882833621312; 0.09147506027266522
13.20000000000001; 48.983726601736535; 214.05888524958866; 0.09343223467075601
13.300000000000011; 47.96485754592288; 209.606427475683; 0.09541692132661463
13.400000000000011; 46.97413299172454; 205.27696117383624; 0.09742934562960161
13.50000000000001; 46.01056867492796; 201.0661851094352; 0.09946973425250252
13.600000000000012; 45.07322218211004; 196.96998093582087; 0.10153831515329557
13.700000000000012; 44.16119085569166; 192.98440403937255; 0.10363531757685256
13.800000000000011; 43.273609819446925; 189.10567491098305; 0.10576097205657375
13.900000000000011; 42.409650116659805; 185.33017100980334; 0.10791551041595958
14.00000000000001; 41.56851695368656; 181.65441908761028; 0.11009916577011089
14.100000000000012; 40.749448042191666; 178.0750879443776; 0.11231217252717052
14.200000000000012; 39.95171203381187; 174.5889815877579; 0.11455476638969289
14.300000000000011; 39.17460704143459; 171.19303277106917; 0.11682718435595066
14.400000000000013; 38.41745924168698; 167.88429688617208; 0.1191296647211757
14.500000000000012; 37.6796215536083; 164.65994618926828; 0.12146244707872679
14.600000000000012; 36.96047238881669; 161.51726433912893; 0.12382577232119966
14.700000000000012; 36.25941446881303; 158.45364122871294; 0.12621988264145903
14.800000000000011; 35.575873705349; 155.46656809237513; 0.1286450215336097
14.900000000000013; 34.90929814006918; 152.55363287210233; 0.13110143379389444
15.000000000000012; 34.25915693988616; 149.71251582730252; 0.1335893655215209
15.100000000000012; 33.62493699176743; 146.94097465402365; 0.1361090740488861
15.200000000000014; 33.0061627396744; 144.23693117237713; 0.13866074269216155
15.300000000000013; 32.402373033615554; 141.59837015689996; 0.14124456360506646
15.400000000000013; 31.813122955125834; 139.0233473138999; 0.14386072833394042
15.500000000000012; 31.237983164049442; 136.50998642689606; 0.1465094277971408
15.600000000000012; 30.676539271956937; 134.05647661845182; 0.1491908522773092
15.700000000000014; 30.12839124396679; 131.66106973613486; 0.15190519141369946
15.800000000000013; 29.593152827537974; 129.32207785634094; 0.15465263419458242
15.900000000000013; 29.070451006887616; 127.03787090009888; 0.15743336894970295
16.000000000000014; 28.559925481750742; 124.80687435525074; 0.16024758334282074
16.100000000000016; 28.06122816928145; 122.62756709975993; 0.16309546436430244
16.200000000000014; 27.574022727950304; 120.49847932114282; 0.16597719832378643
16.30000000000001; 27.09798410235964; 118.41819052731162; 0.16889297084291505
16.400000000000013; 26.632798087957244; 116.38532764437316; 0.17184296684812345
16.500000000000014; 26.17816091467896; 114.39856319714706; 0.1748273705635035
16.600000000000016; 25.73377884860797; 112.45661356841683; 0.1778463655037266
16.700000000000014; 25.299367810783576; 110.55823733312423; 0.1809001344670301
16.800000000000015; 24.874653012338648; 108.7022336639199; 0.1839888595282687
16.900000000000013; 24.459368605187855; 106.88744080467093; 0.1871127220320351
17.000000000000014; 24.05325734753231; 105.1127346087162; 0.19027190258583143
17.100000000000016; 23.656070283478442; 103.3770271388008; 0.19346658105331938
17.200000000000014; 23.26756643611268; 101.67926532581242; 0.19669693654762055
17.300000000000015; 22.887512513400885; 100.01842968356188; 0.1999631474246893
17.400000000000013; 22.515682626319222; 98.39353307701501; 0.2032653912767368
17.500000000000014; 22.15185801864785; 96.8036195414911; 0.2066038449257342
17.600000000000016; 21.79582680789457; 95.24776315049928; 0.20997868441695958
17.700000000000014; 21.447383736835413; 93.72506692997075; 0.21339008501262047
17.800000000000015; 21.106329935190338; 92.23466181678178; 0.21683822118553125
17.900000000000016; 20.77247269097332; 90.77570565955341; 0.2203232666128568
18.000000000000014; 20.445625231080907; 89.34738225982356; 0.2238453941699119
18.100000000000016; 20.12560651070313; 87.94890045177267; 0.22740477592402789
18.200000000000017; 19.812241011163273; 86.57949321878351; 0.23100158312847435
18.300000000000015; 19.505358545809827; 85.23841684518895; 0.23463598621645265
18.400000000000016; 19.204794073606127; 83.92495010165878; 0.23830815479513404
18.500000000000014; 18.91038752007554; 82.63839346273011; 0.24201825763977364
18.600000000000016; 18.62198360528127; 81.37806835507915; 0.24576646268787622
18.700000000000017; 18.33943167853228; 80.14331643518607; 0.24955293703342696
18.800000000000015; 18.062585559523402; 78.93349889511727; 0.25337784692117804
18.900000000000016; 17.791303385630293; 77.74799579520439; 0.2572413577410008
19.000000000000014; 17.52544746509442; 76.58620542246261; 0.26114363402229657
19.100000000000016; 17.26488413584566; 75.44754367364553; 0.26508483942845934
19.200000000000017; 17.009483629720105; 74.33144346187686; 0.2690651367514154
19.300000000000015; 16.759119941845746; 73.23735414586591; 0.273084687906205
19.400000000000016; 16.513670704975453; 72.16474098074274; 0.2771436539256342
19.500000000000018; 16.273017068559486; 71.11308458960495; 0.28124219495498476
19.600000000000016; 16.037043582358553; 70.08188045490688; 0.28538047024678076
19.700000000000017; 15.805638084407583; 69.07063842886114; 0.28955863815561617
19.80000000000002; 15.578691593149053; 68.07888226206136; 0.29377685613304344
19.900000000000016; 15.35609820356345; 67.10614914957227; 0.29803528072251895
20.000000000000018; 15.137754987131705; 66.15198929376555; 0.30233406755441117
20.100000000000016; 14.923583901115089; 65.21606164787293; 0.30667291913436656
20.200000000000017; 14.713464053754016; 64.29783791490506; 0.31105244979573016
20.30000000000002; 14.507300071832999; 63.396901313910206; 0.31547283203905907
20.400000000000016; 14.304999278265255; 62.512846846019166; 0.3199342376657992
20.500000000000018; 14.106471593094032; 61.64528086182092; 0.3244368379930068
20.600000000000016; 13.911629448815125; 60.7938206913221; 0.32898080384763284
20.700000000000017; 13.720387708846289; 59.958094287658284; 0.33356630556079536
20.80000000000002; 13.53266358901214; 59.13773988398305; 0.33819351296204725
20.900000000000016; 13.348376581919235; 58.33240566298706; 0.34286259537364416
21.000000000000018; 13.167448384102498; 57.541749438527916; 0.34757372160479905
21.10000000000002; 12.989802825828582; 56.7654383488709; 0.3523270599459365
21.200000000000017; 12.815365803447536; 56.003148561065736; 0.35712277816294624
21.30000000000002; 12.644065214189169; 55.25456498600667; 0.36196104349142993
21.40000000000002; 12.475830893304886; 54.51938100374235; 0.3668420226309457
21.500000000000018; 12.310594553460435; 53.7972981986221; 0.37176588173924796
21.60000000000002; 12.148289726288894; 53.08802610388247; 0.3767327864265299
21.700000000000017; 11.988851706017723; 52.39128195529745; 0.38174290174966286
21.80000000000002; 11.832217495087459; 51.7067904535322; 0.3867963922064275
21.90000000000002; 11.67832575168235; 51.034283534851866; 0.39189342172976294
22.000000000000018; 11.527116739098954; 50.37350014986243; 0.3970341536819855
22.10000000000002; 11.378532276878458; 49.72418604995886; 0.4022187508490458
22.200000000000017; 11.23251569363601; 49.08609358118937; 0.4074473754347472
22.30000000000002; 11.08901178151902; 48.45898148523812; 0.4127201890549954
22.40000000000002; 10.947966752232384; 47.84261470725552; 0.4180373527320387
22.500000000000018; 10.809328194570105; 47.23676421027136; 0.42339902688870285
22.60000000000002; 10.673045033394843; 46.64120679593546; 0.4288053713426407
22.70000000000002; 10.539067490010423; 46.05572493134555; 0.43425654530058194
22.80000000000002; 10.407347043874426; 45.48010658173124; 0.43975270735257543
22.90000000000002; 10.27783639559929; 44.9141450487689; 0.44529401546625236
23.00000000000002; 10.150489431194064; 44.35763881431806; 0.45088062698107967
23.10000000000002; 10.025261187499613; 43.81039138937331; 0.45651269860262467
23.20000000000002; 9.902107818772624; 43.27221116803637; 0.4621903863968311
23.30000000000002; 9.780986564376214; 42.74291128632405; 0.4679138457842755
23.40000000000002; 9.66185571753472; 42.22230948562673; 0.47368323153446584
23.50000000000002; 9.544674595114726; 41.710227980651354; 0.47949869776011894
23.60000000000002; 9.429403508393605; 41.20649333168006; 0.48536039791145624
23.70000000000002; 9.316003734779704; 40.71093632098731; 0.49126848477050616
23.80000000000002; 9.204437490449441; 40.22339183326406; 0.49722311044540857
23.90000000000002; 9.09466790386775; 39.743698739902065; 0.5032244263647335
24.00000000000002; 8.98665899015987; 39.27169978699864; 0.5092725832718155
24.10000000000002; 8.880375626304307; 38.80724148694982; 0.5153677312190726
24.20000000000002; 8.775783527116415; 38.35017401349874; 0.5215100195623694
24.300000000000022; 8.672849221995527; 37.90035110012045; 0.5276995969553547
24.40000000000002; 8.571540032407286; 37.45762994161984; 0.5339366113438384
24.50000000000002; 8.4718240500759; 37.02187109883169; 0.5402212099601618
24.600000000000023; 8.373670115860731; 36.5929384063114; 0.5465535393175882
24.70000000000002; 8.277047799293278; 36.17069888291163; 0.5529337452047058
24.800000000000022; 8.181927378751611; 35.75502264514454; 0.5593619726798287
24.90000000000002; 8.088279822249413; 35.34578282322994; 0.5658383660654308
25.00000000000002; 7.996076768818725; 34.94285547973783; 0.5723630689425859
25.100000000000023; 7.9052905104657825; 34.54611953073547; 0.5789362241454101
25.20000000000002; 7.815893974679811; 34.15545666935078; 0.5855579737555345
25.300000000000022; 7.7278607074761965; 33.770751291670976; 0.5922284590965758
25.40000000000002; 7.641164856955099; 33.39189042489378; 0.5989478207286498
25.50000000000002; 7.555781157358809; 33.018763657658; 0.6057161984428641
25.600000000000023; 7.471684913609967; 32.65126307247556; 0.6125337312558561
25.70000000000002; 7.388851986315065; 32.28928318019683; 0.6194005574043246
25.800000000000022; 7.307258777216938; 31.93272085643802; 0.6263168143396012
25.900000000000023; 7.226882215081654; 31.581475279906826; 0.6332826387222213
26.00000000000002; 7.14769974200488; 31.235447872561327; 0.6402981664165261
26.100000000000023; 7.069689300124146; 30.89454224154252; 0.6473635324852584
26.200000000000024; 6.992829318722912; 30.558664122819124; 0.6544788711842074
26.300000000000022; 6.917098701713856; 30.22772132648955; 0.6616443159568677
26.400000000000023; 6.8424768154892135; 29.901623683687863; 0.668859999429079
